Material: Aluminum
Thickness: 10.0 mm
Longitudinal wave velocity: 6148.934278633423 m/s
Shear wave velocity: 3097.3259457927006 m/s

S0				S1				S2				S3				S4				A0				A1				A2				A3				A4
fd [kHz mm]	vg [m/s]	fd [kHz mm]	vg [m/s]	fd [kHz mm]	vg [m/s]	fd [kHz mm]	vg [m/s]	fd [kHz mm]	vg [m/s]	fd [kHz mm]	vg [m/s]	fd [kHz mm]	vg [m/s]	fd [kHz mm]	vg [m/s]	fd [kHz mm]	vg [m/s]	fd [kHz mm]	vg [m/s]	
101.0		5349.1		2828.3		1228.7		3737.4		2981.4		6363.6		927.1		9292.9		692.6		101.0		1713.9		1717.2		2541.3		4747.5		909.2		6767.7		2114.4		8080.8		1402.8
202.0		5342.2		2929.3		1891.3		3838.4		3045.5		6464.6		1129.6		9393.9		842.6		202.0		2320.4		1818.2		2734.3		4848.5		1211.5		6868.7		2164.6		8181.8		1622.3
303.0		5330.4		3030.3		2929.7		3939.4		3132.5		6565.7		1466.2		9494.9		1069.6		303.0		2578.8		1919.2		3115.7		4949.5		1725.9		6969.7		2208.0		8282.8		1879.6
404.0		5313.6		3131.3		3264.0		4040.4		3200.1		6666.7		1698.2		9596.0		1221.8		404.0		2775.9		2020.2		3265.2		5151.5		2301.7		7070.7		2226.9		8383.8		2092.1
505.1		5291.2		3232.3		3710.7		4141.4		3264.2		6767.7		1957.0		9697.0		1393.3		505.1		2893.7		2121.2		3423.8		5252.5		2553.1		7171.7		2232.3		8484.8		2294.0
606.1		5262.6		3333.3		3961.9		4242.4		3320.7		6868.7		2182.4		9798.0		1551.4		606.1		2977.6		2222.2		3520.1		5353.5		2760.0		7272.7		2226.8		8585.9		2472.6
707.1		5227.0		3434.3		4172.7		4343.4		3372.2		6969.7		2399.5		9899.0		1698.1		707.1		3033.7		2323.2		3594.5		5454.5		2934.2		7373.7		2216.5		8686.9		2633.6
808.1		5183.4		3535.4		4316.8		4444.4		3418.9		7070.7		2599.3						808.1		3072.3		2424.2		3642.1		5555.6		3076.6		7474.7		2207.4		8787.9		2776.9
909.1		5130.3		3636.4		4421.1		4545.5		3461.8		7171.7		2786.1						909.1		3098.0		2525.3		3670.0		5656.6		3191.5		7575.8		2205.5		8888.9		2904.5
1010.1		5065.9		3737.4		4490.2		4646.5		3501.6		7272.7		2959.6						1010.1		3114.7		2626.3		3679.6		5757.6		3281.4		7676.8		2215.9		8989.9		3017.8
1111.1		4987.9		3838.4		4531.7		4747.5		3539.1		7373.7		3121.4						1111.1		3124.8		2727.3		3672.7		5858.6		3348.9		7777.8		2242.0		9090.9		3118.5
1212.1		4893.3		3939.4		4549.6		4848.5		3575.6		7474.7		3272.7						1212.1		3130.0		2828.3		3650.2		5959.6		3396.3		7878.8		2285.0		9191.9		3207.7
1313.1		4778.4		4040.4		4547.3		4949.5		3610.3		7575.8		3414.9						1313.1		3131.7		2929.3		3612.5		6060.6		3425.5		7979.8		2344.3		9292.9		3286.8
1414.1		4638.0		4141.4		4526.7		5252.5		3726.1		7676.8		3549.0						1414.1		3130.7		3030.3		3559.9		6161.6		3437.9		8080.8		2417.3		9393.9		3356.7
1515.2		4466.1		4242.4		4489.4		5353.5		3768.0		7777.8		3676.0						1515.2		3127.9		3131.3		3492.6		6262.6		3435.0		8181.8		2500.8		9494.9		3418.3
1616.2		4254.9		4343.4		4436.3		5454.5		3815.3		7878.8		3796.8						1616.2		3123.7		3232.3		3410.7		6363.6		3417.9		8282.8		2591.1		9596.0		3472.3
1717.2		3997.1		4444.4		4368.2		5555.6		3866.0		7979.8		3911.9						1717.2		3118.6		3333.3		3314.8		6464.6		3387.9		8383.8		2684.3		9697.0		3519.4
1818.2		3680.4		4545.5		4285.4		5656.6		3920.6		8080.8		4021.7						1818.2		3112.7		3434.3		3205.7		6565.7		3345.8		8484.8		2777.2		9798.0		3560.2
1919.2		3316.3		4646.5		4188.5		5757.6		3978.2		8181.8		4126.4						1919.2		3106.4		3535.4		3085.1		6666.7		3292.9		8585.9		2866.8		9899.0		3594.1
2020.2		2867.2		4747.5		4078.0		5858.6		4037.8		8282.8		4225.9						2020.2		3099.9		3636.4		2955.6		6767.7		3230.3		8686.9		2950.5				
2323.2		1859.4		4848.5		3954.7		5959.6		4098.2		8383.8		4319.9						2121.2		3093.2		3737.4		2821.2		6868.7		3159.2		8888.9		3095.5				
2424.2		1753.8		4949.5		3819.9		6060.6		4157.5		8484.8		4408.8						2222.2		3086.5		3838.4		2686.7		6969.7		3081.2		8989.9		3153.6				
2525.3		1777.1		5050.5		3675.3		6161.6		4214.3		8585.9		4490.5						2323.2		3079.7		3939.4		2558.1		7070.7		2997.9		9090.9		3202.0				
2626.3		1844.8		5151.5		3523.1		6262.6		4266.8		9090.9		4809.5						2424.2		3073.1		4040.4		2441.4		7171.7		2911.1		9191.9		3240.0				
2727.3		1931.6		5252.5		3366.4		6363.6		4313.5		9191.9		4851.1						2525.3		3066.6		4141.4		2341.9		7272.7		2822.9		9292.9		3267.8				
2828.3		2019.2		5353.5		3208.5		6464.6		4353.1		9292.9		4887.0						2626.3		3060.2		4242.4		2262.9		7373.7		2735.4		9393.9		3285.4				
2929.3		2101.9		5454.5		3053.4		6565.7		4384.7		9393.9		4915.1						2727.3		3054.0		4343.4		2205.7		7474.7		2650.7		9494.9		3293.1				
3030.3		2177.4		5555.6		2904.7		6666.7		4407.3		9494.9		4935.7						2828.3		3047.9		4444.4		2169.4		7575.8		2570.7		9596.0		3291.4				
3131.3		2245.4		5656.6		2766.2		6767.7		4420.5		9596.0		4948.3						2929.3		3042.0		4545.5		2151.3		7676.8		2497.0		9697.0		3280.6				
3232.3		2306.1		5757.6		2641.0		6868.7		4423.8		9697.0		4952.7						3030.3		3036.3		4646.5		2148.2		7777.8		2430.9		9798.0		3261.2				
3333.3		2360.3		5858.6		2531.1		6969.7		4417.0		9798.0		4948.5						3131.3		3030.7		4747.5		2156.7		7878.8		2373.1		9899.0		3233.6				
3434.3		2408.7		5959.6		2438.0		7070.7		4400.1		9899.0		4935.0						3232.3		3025.4		4848.5		2173.7		7979.8		2324.1								
3535.4		2451.8		6060.6		2360.6		7171.7		4373.1										3333.3		3020.2		4949.5		2196.6		8080.8		2283.7								
3636.4		2490.4		6161.6		2303.7		7272.7		4336.2										3434.3		3015.1		5050.5		2223.4		8181.8		2251.6								
3737.4		2525.0		6868.7		2191.0		7373.7		4289.9										3535.4		3010.3		5151.5		2252.6		8282.8		2227.1								
3838.4		2556.1		7070.7		2222.0		7474.7		4234.6										3636.4		3005.5		5252.5		2283.1		8383.8		2209.5								
3939.4		2584.0		7575.8		2309.2		7575.8		4170.8										3737.4		3001.0		5353.5		2314.1		8484.8		2197.9								
4040.4		2609.2		7878.8		2368.2		7676.8		4099.5										3838.4		2996.5		5454.5		2345.1		8585.9		2191.4								
4141.4		2632.0		7979.8		2387.0		7777.8		4021.3										3939.4		2992.2		5555.6		2375.5		8686.9		2189.3								
4242.4		2652.6		8282.8		2442.4		7878.8		3937.1										4040.4		2988.1		5656.6		2405.2		8787.9		2190.9								
4343.4		2671.3		8383.8		2459.9		7979.8		3848.1										4141.4		2984.0		5757.6		2434.0		8888.9		2195.5								
4444.4		2688.3		8484.8		2477.0		8080.8		3755.0										4242.4		2980.1		5858.6		2461.7		8989.9		2202.5								
4545.5		2703.7		8787.9		2525.5		8181.8		3658.7										4343.4		2976.3		5959.6		2488.4		9090.9		2211.6								
4646.5		2717.8		8888.9		2540.6		8282.8		3560.3										4444.4		2972.7		6060.6		2513.9		9191.9		2222.2								
4747.5		2730.7		8989.9		2555.3		8383.8		3460.5										4545.5		2969.1		6161.6		2538.4		9292.9		2234.0								
4848.5		2742.4		9090.9		2569.6		8484.8		3360.0										4646.5		2965.6		6262.6		2561.7		9393.9		2246.8								
4949.5		2753.2		9393.9		2609.7		8585.9		3259.6										4747.5		2962.3		6363.6		2584.0		9494.9		2260.3								
5050.5		2763.1		9494.9		2622.2		8686.9		3160.1										4848.5		2959.0		6464.6		2605.2		9596.0		2274.4								
5151.5		2772.2		9596.0		2634.3		8787.9		3062.2										4949.5		2955.9		6565.7		2625.4		9697.0		2288.8								
5252.5		2780.5		9697.0		2646.1		8888.9		2966.6										5050.5		2952.8		6666.7		2644.7		9798.0		2303.4								
5353.5		2788.2		9798.0		2657.4		8989.9		2874.2										5151.5		2949.9		6767.7		2663.0		9899.0		2318.1								
5454.5		2795.2		9899.0		2668.4		9090.9		2785.7										5252.5		2947.1		6868.7		2680.5												
5555.6		2801.8						9191.9		2702.0										5353.5		2944.3		6969.7		2697.2												
5656.6		2807.8						9292.9		2623.8										5454.5		2941.6		7070.7		2713.0												
5757.6		2813.3						9393.9		2551.7										5555.6		2939.1		7171.7		2728.1												
5858.6		2818.5						9494.9		2486.2										5656.6		2936.6		7272.7		2742.5												
5959.6		2823.2						9596.0		2427.6										5757.6		2934.2		7373.7		2756.2												
6060.6		2827.6						9697.0		2376.1										5858.6		2931.9		7474.7		2769.2												
6161.6		2831.7						9798.0		2331.6										5959.6		2929.7		7575.8		2781.7												
6262.6		2835.5						9899.0		2294.1										6060.6		2927.5		7676.8		2793.5												
6363.6		2839.0																		6161.6		2925.5		7777.8		2804.8												
6464.6		2842.3																		6262.6		2923.5		7878.8		2815.6												
6565.7		2845.3																		6363.6		2921.6		7979.8		2825.9												
6666.7		2848.1																		6464.6		2919.8		8080.8		2835.8												
6767.7		2850.7																		6565.7		2918.1		8181.8		2845.1												
6868.7		2853.1																		6666.7		2916.4		8282.8		2854.1												
6969.7		2855.4																		6767.7		2914.8		8383.8		2862.7												
7070.7		2857.5																		6868.7		2913.3		8484.8		2870.9												
7171.7		2859.5																		6969.7		2911.9		8585.9		2878.7												
7272.7		2861.3																		7070.7		2910.5		8686.9		2886.2												
7373.7		2863.0																		7171.7		2909.2		8787.9		2893.3												
7474.7		2864.6																		7272.7		2907.9		8888.9		2900.2												
7575.8		2866.1																		7373.7		2906.7		8989.9		2906.7												
7676.8		2867.4																		7474.7		2905.6		9090.9		2913.0												
7777.8		2868.7																		7575.8		2904.5		9191.9		2919.0												
7878.8		2869.9																		7676.8		2903.5																
7979.8		2871.0																		7777.8		2902.5																
8080.8		2872.1																		7878.8		2901.6																
8181.8		2873.1																		7979.8		2900.7																
8282.8		2874.0																		8080.8		2899.9																
8383.8		2874.8																		8181.8		2899.1																
8484.8		2875.6																		8282.8		2898.3																
8585.9		2876.4																		8383.8		2897.6																
8686.9		2877.1																		8484.8		2897.0																
8787.9		2877.7																		8585.9		2896.4																
8888.9		2878.3																		8686.9		2895.8																
8989.9		2878.9																		8787.9		2895.2																
9090.9		2879.4																		8888.9		2894.7																
9191.9		2879.9																		8989.9		2894.2																
9292.9		2880.3																		9090.9		2893.7																
9393.9		2880.8																		9191.9		2893.3																
9494.9		2881.2																		9292.9		2892.9																
9596.0		2881.5																		9393.9		2892.5																
9697.0		2881.9																		9494.9		2892.1																
9798.0		2882.2																		9596.0		2891.8																
9899.0		2882.5																		9697.0		2891.5																
																				9798.0		2891.2																
																				9899.0		2890.9																
																				10000.0		2890.6																
