Material: Aluminum
Thickness: 10.0 mm
Longitudinal wave velocity: 6148.934278633423 m/s
Shear wave velocity: 3097.3259457927006 m/s

S0				S1				S2				S3				S4				A0				A1				A2				A3				A4
fd [kHz mm]	vp [m/s]	fd [kHz mm]	vp [m/s]	fd [kHz mm]	vp [m/s]	fd [kHz mm]	vp [m/s]	fd [kHz mm]	vp [m/s]	fd [kHz mm]	vp [m/s]	fd [kHz mm]	vp [m/s]	fd [kHz mm]	vp [m/s]	fd [kHz mm]	vp [m/s]	fd [kHz mm]	vp [m/s]	
101.0		5350.6		2828.3		8712.5		3737.4		14439.0		6363.6		14403.7		9292.9		14371.6		101.0		954.6		1717.2		13193.8		4747.5		11209.9		6767.7		13781.4		8080.8		14358.2
202.0		5348.3		2929.3		7446.6		3838.4		13126.1		6464.6		11917.8		9393.9		12027.1		202.0		1304.0		1818.2		10754.1		4848.5		9280.4		6868.7		12759.6		8181.8		12985.2
303.0		5344.4		3030.3		6968.3		3939.4		12117.5		6565.7		10587.0		9494.9		10711.7		303.0		1545.2		1919.2		9437.1		4949.5		8372.9		6969.7		11925.0		8282.8		12043.9
404.0		5338.9		3131.3		6692.7		4040.4		11317.5		6666.7		9741.0		9596.0		9841.5		404.0		1728.8		2020.2		8592.7		5151.5		7436.7		7070.7		11223.5		8383.8		11350.2
505.1		5331.7		3232.3		6508.1		4141.4		10666.8		6767.7		9149.9		9697.0		9215.2		505.1		1875.4		2121.2		7997.0		5252.5		7153.1		7171.7		10620.4		8484.8		10812.9
606.1		5322.6		3333.3		6373.5		4242.4		10126.8		6868.7		8711.0		9798.0		8740.2		606.1		1995.7		2222.2		7549.9		5353.5		6931.9		7272.7		10093.0		8585.9		10380.9
707.1		5311.4		3434.3		6269.4		4343.4		9671.2		6969.7		8371.0		9899.0		8367.1		707.1		2096.5		2323.2		7199.0		5454.5		6752.7		7373.7		9625.9		8686.9		10023.7
808.1		5298.0		3535.4		6185.3		4444.4		9281.4		7070.7		8099.1						808.1		2182.0		2424.2		6914.1		5555.6		6603.1		7474.7		9208.7		8787.9		9721.5
909.1		5282.0		3636.4		6114.8		4545.5		8944.0		7171.7		7876.4						909.1		2255.4		2525.3		6676.4		5656.6		6475.3		7575.8		8834.7		8888.9		9461.2
1010.1		5263.1		3737.4		6054.0		4646.5		8649.0		7272.7		7690.3						1010.1		2319.0		2626.3		6473.2		5757.6		6363.7		7676.8		8499.3		8989.9		9233.5
1111.1		5240.8		3838.4		6000.1		4747.5		8389.0		7373.7		7532.6						1111.1		2374.4		2727.3		6295.9		5858.6		6264.5		7777.8		8199.5		9090.9		9031.9
1212.1		5214.6		3939.4		5951.1		4848.5		8158.2		7474.7		7397.0						1212.1		2423.0		2828.3		6138.3		5959.6		6174.8		7878.8		7932.6		9191.9		8851.5
1313.1		5183.5		4040.4		5905.7		4949.5		7952.0		7575.8		7279.4						1313.1		2465.9		2929.3		5995.7		6060.6		6092.6		7979.8		7695.9		9292.9		8688.6
1414.1		5146.5		4141.4		5862.6		5252.5		7449.6		7676.8		7176.4						1414.1		2503.9		3030.3		5864.5		6161.6		6016.2		8080.8		7486.8		9393.9		8540.2
1515.2		5102.3		4242.4		5821.0		5353.5		7313.2		7777.8		7085.6						1515.2		2537.8		3131.3		5741.7		6262.6		5944.3		8181.8		7302.4		9494.9		8404.3
1616.2		5048.9		4343.4		5780.1		5454.5		7189.5		7878.8		7005.1						1616.2		2568.0		3232.3		5625.2		6363.6		5875.8		8282.8		7139.7		9596.0		8278.9
1717.2		4983.5		4444.4		5739.4		5555.6		7077.3		7979.8		6933.4						1717.2		2595.0		3333.3		5512.9		6464.6		5809.9		8383.8		6995.8		9697.0		8162.6
1818.2		4902.6		4545.5		5698.1		5656.6		6975.4		8080.8		6869.2						1818.2		2619.3		3434.3		5403.1		6565.7		5745.8		8484.8		6868.1		9798.0		8054.2
1919.2		4801.1		4646.5		5655.7		5757.6		6882.9		8181.8		6811.5						1919.2		2641.2		3535.4		5294.6		6666.7		5682.9		8585.9		6754.1		9899.0		7952.6
2020.2		4672.6		4747.5		5611.7		5858.6		6798.8		8282.8		6759.5						2020.2		2661.1		3636.4		5186.1		6767.7		5620.6		8686.9		6651.9				
2323.2		4098.4		4848.5		5565.7		5959.6		6722.3		8383.8		6712.4						2121.2		2679.0		3737.4		5076.9		6868.7		5558.6		8888.9		6475.5				
2424.2		3889.3		4949.5		5517.1		6060.6		6652.6		8484.8		6669.7						2222.2		2695.3		3838.4		4966.6		6969.7		5496.3		8989.9		6398.4				
2525.3		3709.9		5050.5		5465.5		6161.6		6589.0		8585.9		6630.8						2323.2		2710.1		3939.4		4855.2		7070.7		5433.6		9090.9		6327.2				
2626.3		3565.7		5151.5		5410.5		6262.6		6530.7		9090.9		6478.8						2424.2		2723.6		4040.4		4743.3		7171.7		5370.1		9191.9		6260.9				
2727.3		3452.0		5252.5		5351.8		6363.6		6477.0		9191.9		6454.6						2525.3		2736.0		4141.4		4632.1		7272.7		5305.8		9292.9		6198.7				
2828.3		3362.2		5353.5		5289.1		6464.6		6427.3		9292.9		6431.9						2626.3		2747.3		4242.4		4522.9		7373.7		5240.5		9393.9		6139.8				
2929.3		3290.6		5454.5		5222.3		6565.7		6381.1		9393.9		6410.3						2727.3		2757.6		4343.4		4417.5		7474.7		5174.3		9494.9		6083.8				
3030.3		3232.7		5555.6		5151.7		6666.7		6337.7		9494.9		6389.9						2828.3		2767.1		4444.4		4317.3		7575.8		5107.4		9596.0		6030.0				
3131.3		3185.2		5656.6		5077.6		6767.7		6296.8		9596.0		6370.2						2929.3		2775.8		4545.5		4223.5		7676.8		5040.0		9697.0		5978.0				
3232.3		3146.0		5757.6		5000.4		6868.7		6257.8		9697.0		6351.3						3030.3		2783.9		4646.5		4136.7		7777.8		4972.5		9798.0		5927.4				
3333.3		3113.1		5858.6		4921.1		6969.7		6220.4		9798.0		6332.8						3131.3		2791.3		4747.5		4057.0		7878.8		4905.1		9899.0		5878.0				
3434.3		3085.4		5959.6		4840.5		7070.7		6184.1		9899.0		6314.7						3232.3		2798.1		4848.5		3984.5		7979.8		4838.4								
3535.4		3061.8		6060.6		4759.7		7171.7		6148.6										3333.3		2804.4		4949.5		3918.6		8080.8		4772.7								
3636.4		3041.7		6161.6		4679.7		7272.7		6113.7										3434.3		2810.3		5050.5		3858.9		8181.8		4708.5								
3737.4		3024.3		6868.7		4197.8		7373.7		6078.9										3535.4		2815.7		5151.5		3804.8		8282.8		4646.0								
3838.4		3009.2		7070.7		4092.3		7474.7		6044.1										3636.4		2820.7		5252.5		3755.9		8383.8		4585.5								
3939.4		2996.1		7575.8		3883.0		7575.8		6009.0										3737.4		2825.3		5353.5		3711.5		8484.8		4527.2								
4040.4		2984.6		7878.8		3786.9		7676.8		5973.4										3838.4		2829.6		5454.5		3671.2		8585.9		4471.3								
4141.4		2974.5		7979.8		3758.7		7777.8		5937.1										3939.4		2833.6		5555.6		3634.5		8686.9		4417.8								
4242.4		2965.7		8282.8		3683.7		7878.8		5899.9										4040.4		2837.3		5656.6		3601.0		8787.9		4366.7								
4343.4		2957.8		8383.8		3661.5		7979.8		5861.7										4141.4		2840.8		5757.6		3570.4		8888.9		4318.1								
4444.4		2950.9		8484.8		3640.5		8080.8		5822.2										4242.4		2844.0		5858.6		3542.4		8989.9		4271.8								
4545.5		2944.7		8787.9		3584.3		8181.8		5781.5										4343.4		2847.0		5959.6		3516.7		9090.9		4227.9								
4646.5		2939.2		8888.9		3567.4		8282.8		5739.4										4444.4		2849.8		6060.6		3493.1		9191.9		4186.1								
4747.5		2934.3		8989.9		3551.5		8383.8		5695.8										4545.5		2852.4		6161.6		3471.3		9292.9		4146.5								
4848.5		2929.8		9090.9		3536.3		8484.8		5650.7										4646.5		2854.8		6262.6		3451.2		9393.9		4108.9								
4949.5		2925.9		9393.9		3495.1		8585.9		5604.1										4747.5		2857.0		6363.6		3432.6		9494.9		4073.2								
5050.5		2922.3		9494.9		3482.7		8686.9		5555.9										4848.5		2859.1		6464.6		3415.4		9596.0		4039.4								
5151.5		2919.1		9596.0		3470.8		8787.9		5506.1										4949.5		2861.0		6565.7		3399.4		9697.0		4007.2								
5252.5		2916.3		9697.0		3459.4		8888.9		5454.9										5050.5		2862.8		6666.7		3384.5		9798.0		3976.7								
5353.5		2913.7		9798.0		3448.6		8989.9		5402.2										5151.5		2864.5		6767.7		3370.6		9899.0		3947.6								
5454.5		2911.3		9899.0		3438.3		9090.9		5348.1										5252.5		2866.1		6868.7		3357.7												
5555.6		2909.2						9191.9		5292.9										5353.5		2867.5		6969.7		3345.7												
5656.6		2907.2						9292.9		5236.6										5454.5		2868.9		7070.7		3334.4												
5757.6		2905.5						9393.9		5179.6										5555.6		2870.2		7171.7		3323.8												
5858.6		2903.9						9494.9		5122.0										5656.6		2871.4		7272.7		3313.9												
5959.6		2902.4						9596.0		5064.2										5757.6		2872.5		7373.7		3304.6												
6060.6		2901.1						9697.0		5006.3										5858.6		2873.5		7474.7		3295.9												
6161.6		2899.9						9798.0		4948.8										5959.6		2874.4		7575.8		3287.7												
6262.6		2898.8						9899.0		4891.9										6060.6		2875.3		7676.8		3279.9												
6363.6		2897.8																		6161.6		2876.1		7777.8		3272.6												
6464.6		2896.9																		6262.6		2876.9		7878.8		3265.7												
6565.7		2896.1																		6363.6		2877.6		7979.8		3259.2												
6666.7		2895.3																		6464.6		2878.3		8080.8		3253.1												
6767.7		2894.6																		6565.7		2878.9		8181.8		3247.3												
6868.7		2894.0																		6666.7		2879.5		8282.8		3241.7												
6969.7		2893.4																		6767.7		2880.0		8383.8		3236.5												
7070.7		2892.9																		6868.7		2880.5		8484.8		3231.5												
7171.7		2892.4																		6969.7		2881.0		8585.9		3226.8												
7272.7		2891.9																		7070.7		2881.4		8686.9		3222.4												
7373.7		2891.5																		7171.7		2881.8		8787.9		3218.1												
7474.7		2891.1																		7272.7		2882.2		8888.9		3214.1												
7575.8		2890.8																		7373.7		2882.5		8989.9		3210.2												
7676.8		2890.5																		7474.7		2882.8		9090.9		3206.5												
7777.8		2890.2																		7575.8		2883.1		9191.9		3203.0												
7878.8		2889.9																		7676.8		2883.4																
7979.8		2889.7																		7777.8		2883.6																
8080.8		2889.4																		7878.8		2883.9																
8181.8		2889.2																		7979.8		2884.1																
8282.8		2889.0																		8080.8		2884.3																
8383.8		2888.9																		8181.8		2884.5																
8484.8		2888.7																		8282.8		2884.6																
8585.9		2888.5																		8383.8		2884.8																
8686.9		2888.4																		8484.8		2885.0																
8787.9		2888.3																		8585.9		2885.1																
8888.9		2888.2																		8686.9		2885.2																
8989.9		2888.1																		8787.9		2885.3																
9090.9		2888.0																		8888.9		2885.4																
9191.9		2887.9																		8989.9		2885.5																
9292.9		2887.8																		9090.9		2885.6																
9393.9		2887.7																		9191.9		2885.7																
9494.9		2887.6																		9292.9		2885.8																
9596.0		2887.6																		9393.9		2885.9																
9697.0		2887.5																		9494.9		2885.9																
9798.0		2887.5																		9596.0		2886.0																
9899.0		2887.4																		9697.0		2886.1																
																				9798.0		2886.1																
																				9899.0		2886.2																
																				10000.0		2886.2																
